# Cu foil at 10K
# # cu10k.dat    : this file is part of the uwxafs 3.0 distribution
# data taken at NSLS beamline X-11A Sept 1992
# by M Newville, B Ravel, and Y Zhang
# foil of 99.999% Cu rolled and annealled to ~12 microns
# sample prepared by M Newville
# From X-11A :
# 2-SI111 HC/2D= 1977.260 STPDEG=6400. STPMMZ= 40.
# FOCUS=F TRANSLT=F  E0= 8980.0 NREG= 3 NPTS= 611 NSCLRS= 3 EF= .0
# SRB=     -193.7    -43.5     30.0   2381.3
# DEL=         10.020     .483     .050K
# SEC=             1.000    1.000    1.000
# DETECTORSI0      I       If
# GAINS           8       7      10
# OFFSETS     51284   50016   48319
#------------------------
#   energy        xmu
  8786.204         1.013661
  8796.258        0.9949864
  8806.253        0.9900679
  8816.270        0.9850345
  8826.270        0.9801005
  8836.292        0.9751812
  8846.337        0.9703809
  8856.322        0.9656931
  8866.372        0.9609839
  8876.361        0.9562312
  8886.416        0.9515597
  8896.409        0.9472797
  8906.425        0.9427789
  8916.464        0.9387816
  8926.483        0.9347627
  8936.483        0.9319326
  8936.998        0.9318979
  8937.471        0.9319605
  8937.944        0.9317057
  8938.417        0.9314675
  8938.976        0.9315093
  8939.406        0.9315045
  8939.878        0.9313901
  8940.352        0.9313291
  8940.824        0.9312409
  8941.384        0.9311222
  8941.814        0.9310213
  8942.287        0.9309021
  8942.761        0.9307298
  8943.319        0.9306122
  8943.793        0.9304990
  8944.224        0.9306326
  8944.697        0.9305469
  8945.257        0.9303982
  8945.730        0.9303880
  8946.204        0.9303346
  8946.635        0.9303558
  8947.108        0.9302956
  8947.668        0.9302498
  8948.143        0.9302464
  8948.616        0.9301887
  8949.048        0.9302589
  8949.564        0.9302350
  8950.038        0.9301157
  8950.513        0.9302852
  8950.987        0.9301982
  8951.461        0.9303481
  8951.979        0.9303330
  8952.453        0.9302519
  8952.927        0.9303452
  8953.401        0.9304274
  8953.876        0.9305623
  8954.394        0.9306202
  8954.868        0.9307082
  8955.343        0.9309137
  8955.817        0.9310440
  8956.336        0.9311512
  8956.811        0.9312306
  8957.285        0.9314795
  8957.761        0.9315805
  8958.235        0.9318467
  8958.710        0.9322639
  8959.229        0.9325585
  8959.703        0.9327140
  8960.179        0.9331298
  8960.654        0.9333592
  8961.130        0.9338366
  8961.647        0.9340628
  8962.123        0.9345798
  8962.599        0.9350846
  8963.074        0.9357670
  8963.550        0.9363439
  8964.068        0.9371685
  8964.544        0.9378253
  8965.020        0.9386100
  8965.496        0.9393651
  8965.972        0.9404053
  8966.447        0.9413668
  8966.967        0.9426652
  8967.442        0.9440842
  8967.919        0.9458520
  8968.395        0.9469061
  8968.871        0.9484839
  8969.347        0.9510049
  8969.909        0.9537250
  8970.386        0.9559226
  8970.862        0.9591411
  8971.339        0.9638383
  8971.772        0.9658701
  8972.248        0.9704646
  8972.812        0.9777987
  8973.288        0.9857215
  8973.765        0.9959283
  8974.198         1.004012
  8974.675         1.025727
  8975.151         1.041380
  8975.628         1.065133
  8976.192         1.129467
  8976.626         1.208882
  8977.103         1.347811
  8977.580         1.576825
  8978.057         1.781245
  8978.534         1.922731
  8979.055         1.990812
  8979.531         2.014387
  8980.009         2.006267
  8980.486         1.985342
  8980.964         1.960698
  8981.441         1.948155
  8981.919         1.962577
  8982.396         1.988741
  8982.918         2.034157
  8983.396         2.087115
  8983.873         2.129985
  8984.352         2.166079
  8984.829         2.204677
  8985.307         2.266785
  8985.785         2.305345
  8986.307         2.377522
  8986.784         2.447587
  8987.263         2.550736
  8987.741         2.628802
  8988.219         2.739306
  8988.697         2.846921
  8989.176         2.926129
  8989.653         3.004384
  8990.132         3.103122
  8990.698         3.211040
  8991.133         3.253994
  8991.611         3.299688
  8992.090         3.307443
  8992.568         3.292812
  8993.048         3.270622
  8993.526         3.232157
  8994.006         3.193880
  8994.484         3.153873
  8995.007         3.110148
  8995.485         3.076609
  8995.965         3.057663
  8996.444         3.044436
  8996.924         3.038896
  8997.402         3.047299
  8997.882         3.067514
  8998.361         3.100560
  8998.840         3.164385
  8999.319         3.198286
  8999.799         3.253436
  9000.366         3.303922
  9000.803         3.341708
  9001.281         3.359158
  9001.762         3.356086
  9002.241         3.337021
  9002.721         3.294590
  9003.201         3.271427
  9003.681         3.230007
  9004.161         3.208134
  9004.642         3.151590
  9005.121         3.126171
  9005.602         3.094709
  9006.125         3.063252
  9006.605         3.043238
  9007.086         3.022431
  9007.566         2.994922
  9008.047         2.975828
  9008.526         2.955377
  9009.007         2.941575
  9009.487         2.933227
  9009.969         2.931259
  9011.062         2.941681
  9012.153         2.955967
  9013.246         2.980734
  9014.384         3.008692
  9015.565         3.061603
  9016.746         3.111765
  9017.928         3.151268
  9019.154         3.209008
  9020.380         3.265456
  9021.606         3.309451
  9022.877         3.344066
  9024.191         3.347933
  9025.464         3.317408
  9026.822         3.256685
  9028.140         3.197553
  9029.499         3.127461
  9030.903         3.074151
  9032.309         3.038878
  9033.759         3.014589
  9035.164         3.009469
  9036.615         3.019048
  9038.109         3.042527
  9039.604         3.064316
  9041.145         3.070378
  9042.642         3.060592
  9044.271         3.049929
  9045.768         3.056479
  9047.397         3.083377
  9049.029         3.111159
  9050.616         3.117680
  9052.336         3.112090
  9053.969         3.114585
  9055.646         3.135969
  9057.324         3.166758
  9059.047         3.194733
  9060.814         3.212787
  9062.627         3.230845
  9064.353         3.252570
  9066.166         3.285908
  9067.981         3.320478
  9069.842         3.347080
  9071.702         3.347973
  9073.563         3.322422
  9075.470         3.270037
  9077.377         3.199704
  9079.329         3.141443
  9081.283         3.096301
  9083.237         3.056642
  9085.281         3.035020
  9087.237         3.030587
  9089.283         3.008554
  9091.330         2.954597
  9093.378         2.905036
  9095.472         2.869176
  9097.610         2.861018
  9099.705         2.881511
  9101.847         2.917772
  9104.033         2.965204
  9106.221         3.017964
  9108.409         3.067991
  9110.644         3.100566
  9112.879         3.107379
  9115.160         3.090957
  9117.398         3.071216
  9119.728         3.065036
  9122.057         3.105295
  9124.389         3.203622
  9126.721         3.327629
  9129.099         3.390544
  9131.478         3.393080
  9133.904         3.363564
  9136.331         3.334324
  9138.805         3.300580
  9141.279         3.238897
  9143.756         3.156461
  9146.233         3.055825
  9148.803         2.946566
  9151.328         2.839257
  9153.899         2.747080
  9156.474         2.689709
  9159.094         2.682628
  9161.716         2.730871
  9164.339         2.816572
  9167.009         2.917572
  9169.681         3.016081
  9172.399         3.080977
  9175.074         3.115732
  9177.842         3.108910
  9180.564         3.070012
  9183.381         3.033550
  9186.153         3.015555
  9188.973         3.007977
  9191.794         2.979829
  9194.663         2.938781
  9197.533         2.929960
  9200.406         2.976179
  9203.326         3.073268
  9206.247         3.170151
  9209.217         3.203155
  9212.143         3.206142
  9215.115         3.190300
  9218.183         3.147204
  9221.160         3.071421
  9224.185         2.977321
  9227.258         2.889161
  9230.333         2.822056
  9233.502         2.781351
  9236.581         2.763039
  9239.755         2.769146
  9242.838         2.800158
  9246.016         2.822845
  9249.196         2.821907
  9252.425         2.826751
  9255.655         2.834598
  9258.889         2.837595
  9262.171         2.852731
  9265.454         2.884891
  9268.787         2.914335
  9272.122         2.934046
  9275.459         2.943820
  9278.800         2.944769
  9282.188         2.942882
  9285.580         2.952354
  9289.021         2.967295
  9292.465         2.986871
  9295.910         3.003432
  9299.404         2.981879
  9302.949         2.933500
  9306.403         2.889045
  9309.953         2.840568
  9313.506         2.796097
  9317.061         2.775838
  9320.666         2.781760
  9324.320         2.801508
  9327.932         2.816890
  9331.592         2.803144
  9335.256         2.763032
  9338.922         2.711823
  9342.639         2.687955
  9346.358         2.711813
  9350.128         2.737134
  9353.900         2.737934
  9357.677         2.748922
  9361.455         2.765675
  9365.285         2.773098
  9369.165         2.781047
  9373.048         2.789819
  9376.840         2.797477
  9380.777         2.804734
  9384.671         2.809786
  9388.614         2.812114
  9392.563         2.813700
  9396.561         2.814358
  9400.515         2.809979
  9404.567         2.793399
  9408.576         2.760490
  9412.637         2.718249
  9416.700         2.683656
  9420.768         2.671065
  9424.935         2.671632
  9429.010         2.681260
  9433.184         2.696438
  9437.313         2.704987
  9441.495         2.701200
  9445.729         2.686653
  9449.966         2.657398
  9454.208         2.628573
  9458.453         2.623585
  9462.702         2.633209
  9467.004         2.630277
  9471.358         2.616724
  9475.668         2.610234
  9480.029         2.609877
  9484.396         2.618066
  9488.814         2.632820
  9493.189         2.645850
  9497.665         2.661480
  9502.097         2.680759
  9506.581         2.696983
  9511.118         2.702235
  9515.563         2.694176
  9520.109         2.669260
  9524.611         2.625398
  9529.265         2.580381
  9533.775         2.561563
  9538.438         2.556394
  9543.007         2.555007
  9547.679         2.552842
  9552.306         2.553917
  9556.986         2.558074
  9561.673         2.558972
  9566.462         2.552003
  9571.157         2.546721
  9575.956         2.543460
  9580.661         2.535349
  9585.470         2.517931
  9590.283         2.509453
  9595.102         2.508878
  9599.976         2.507338
  9604.854         2.511822
  9609.737         2.515893
  9614.625         2.514758
  9619.568         2.514053
  9624.518         2.518860
  9629.471         2.526326
  9634.431         2.524162
  9639.445         2.515393
  9644.466         2.505588
  9649.541         2.495945
  9654.571         2.489619
  9659.708         2.480515
  9664.750         2.465866
  9669.847         2.454911
  9675.001         2.448600
  9680.159         2.444625
  9685.324         2.444391
  9690.545         2.438542
  9695.722         2.425891
  9700.953         2.421363
  9706.243         2.420298
  9711.486         2.415727
  9716.788         2.406582
  9722.094         2.399528
  9727.407         2.394548
  9732.776         2.385773
  9738.204         2.384001
  9743.535         2.385557
  9748.923         2.387176
  9754.317         2.393320
  9759.769         2.393286
  9765.227         2.390265
  9770.742         2.386799
  9776.212         2.377775
  9781.793         2.363987
  9787.275         2.354141
  9792.816         2.352211
  9798.416         2.352589
  9804.022         2.351565
  9809.584         2.349586
  9815.254         2.343184
  9820.880         2.331066
  9826.564         2.319885
  9832.308         2.309800
  9837.953         2.302536
  9843.659         2.298680
  9849.422         2.294200
  9855.192         2.287658
  9860.971         2.282896
  9866.755         2.277700
  9872.600         2.273120
  9878.450         2.271066
  9884.310         2.266972
  9890.175         2.263576
  9896.100         2.263998
  9901.980         2.264150
  9907.920         2.261573
  9913.867         2.257439
  9919.876         2.252447
  9925.838         2.245956
  9931.859         2.240462
  9937.890         2.235462
  9943.980         2.228760
  9950.025         2.219993
  9956.132         2.213546
  9962.300         2.207783
  9968.367         2.204902
  9974.497         2.202134
  9980.687         2.199268
  9986.832         2.191243
  9993.038         2.184893
  9999.253         2.181988
  10005.53         2.175889
  10011.76         2.168400
  10018.05         2.161425
  10024.35         2.155688
  10030.66         2.151178
  10037.03         2.145570
  10043.36         2.139351
  10049.74         2.135055
  10056.14         2.131782
  10062.54         2.131762
  10068.96         2.132080
  10075.43         2.127986
  10081.92         2.122787
  10088.46         2.116560
  10094.91         2.112059
  10101.42         2.107203
  10107.94         2.101453
  10114.52         2.094787
  10121.11         2.089134
  10127.71         2.082759
  10134.32         2.078182
  10141.05         2.073463
  10147.68         2.068076
  10154.31         2.063473
  10161.01         2.061048
  10167.78         2.055853
  10174.49         2.049533
  10181.28         2.042940
  10188.07         2.036571
  10194.82         2.031228
  10201.63         2.026054
  10208.45         2.021201
  10215.28         2.017216
  10222.17         2.014019
  10229.13         2.011350
  10235.99         2.007960
  10242.86         2.003555
  10249.85         1.997455
  10256.79         1.991910
  10263.80         1.988298
  10270.82         1.983455
  10277.85         1.978791
  10284.89         1.974810
  10291.88         1.969660
  10299.05         1.964434
  10306.12         1.960277
  10313.20         1.955222
  10320.41         1.949610
  10327.50         1.943582
  10334.73         1.937461
  10341.85         1.931902
  10349.09         1.926781
  10356.35         1.922293
  10363.61         1.918179
  10370.89         1.913225
  10378.17         1.908101
  10385.47         1.902590
  10392.78         1.897350
  10400.10         1.892302
  10407.48         1.888240
  10414.82         1.884945
  10422.23         1.880880
  10429.65         1.875209
  10437.14         1.869117
  10444.58         1.864810
  10452.03         1.859730
  10459.55         1.854703
  10467.08         1.850927
  10474.63         1.846062
  10482.18         1.841454
  10489.75         1.836949
  10497.32         1.832029
  10504.97         1.827266
  10512.57         1.822091
  10520.24         1.816615
  10527.92         1.811286
  10535.62         1.806091
  10543.32         1.801056
  10551.04         1.795975
  10558.77         1.790457
  10566.50         1.784985
  10574.32         1.779817
  10582.20         1.774830
  10589.91         1.770077
  10597.76         1.765584
  10605.62         1.761346
  10613.55         1.756188
  10621.43         1.751146
  10629.33         1.745866
  10637.30         1.741325
  10645.21         1.736995
  10653.21         1.732137
  10661.21         1.727265
  10669.23         1.722011
  10677.26         1.716960
  10685.30         1.711949
  10693.35         1.707255
  10701.54         1.702657
  10709.56         1.698036
  10717.71         1.692923
  10725.81         1.688424
  10733.99         1.683495
  10742.24         1.678441
  10750.38         1.673326
  10758.60         1.668216
  10766.83         1.662904
  10775.14         1.657390
  10783.39         1.652672
  10791.72         1.647545
  10800.00         1.642962
  10808.36         1.638716
  10816.73         1.634322
  10825.05         1.629474
  10833.45         1.624254
  10841.86         1.619885
  10850.41         1.614815
  10858.78         1.610030
  10867.23         1.605274
  10875.76         1.600137
  10884.23         1.595601
  10892.85         1.590329
  10901.29         1.585683
  10909.94         1.580797
  10918.47         1.576162
  10927.08         1.571243
  10935.70         1.566459
  10944.40         1.561783
  10952.99         1.556788
  10961.65         1.551967
  10970.40         1.546871
  10979.09         1.541756
  10987.86         1.536987
  10996.65         1.531856
  11005.32         1.527318
  11014.14         1.522359
  11022.97         1.517451
  11031.81         1.512805
  11040.67         1.507971
  11049.54         1.503313
  11058.43         1.498878
  11067.33         1.493591
  11076.25         1.489248
  11085.18         1.484389
  11094.12         1.479586
  11103.15         1.475953
  11112.13         1.470389
  11121.25         1.465458
  11130.19         1.460824
  11139.34         1.456106
  11148.38         1.451418
  11157.43         1.446648
  11166.56         1.441941
  11175.78         1.437189
  11184.87         1.432610
  11194.05         1.427790
  11203.31         1.422876
  11212.45         1.418740
  11221.68         1.413546
  11230.98         1.408856
  11240.17         1.404290
  11249.51         1.399685
  11258.80         1.395006
  11268.17         1.390236
  11277.55         1.385646
  11286.82         1.381390
  11296.24         1.376596
  11305.60         1.371654
  11315.05         1.367242
  11324.52         1.362544
  11333.93         1.358360
  11343.43         1.353479
  11352.94         1.349326
  11362.47         1.344309
