# Cu foil at 10K
# # cu10k.dat    : this file is part of the uwxafs 3.0 distribution
# data taken at NSLS beamline X-11A Sept 1992
# by M Newville, B Ravel, and Y Zhang
# foil of 99.999% Cu rolled and annealled to ~12 microns
# sample prepared by M Newville
# From X-11A :
# 2-SI111 HC/2D= 1977.260 STPDEG=6400. STPMMZ= 40.
# FOCUS=F TRANSLT=F  E0= 8980.0 NREG= 3 NPTS= 611 NSCLRS= 3 EF= .0
# SRB=     -193.7    -43.5     30.0   2381.3
# DEL=         10.020     .483     .050K
# SEC=             1.000    1.000    1.000
# DETECTORSI0      I       If
# GAINS           8       7      10
# OFFSETS     51284   50016   48319
#------------------------
#   energy     xmu
  8786.2040        1.0136610
  8796.2580       0.99498640
  8806.2530       0.99006790
  8816.2700       0.98503450
  8826.2700       0.98010050
  8836.2920       0.97518120
  8846.3370       0.97038090
  8856.3220       0.96569310
  8866.3720       0.96098390
  8876.3610       0.95623120
  8886.4160       0.95155970
  8896.4090       0.94727970
  8906.4250       0.94277890
  8916.4640       0.93878160
  8926.4830       0.93476270
  8936.4830       0.93193260
  8936.9980       0.93189790
  8937.4710       0.93196050
  8937.9440       0.93170570
  8938.4170       0.93146750
  8938.9760       0.93150930
  8939.4060       0.93150450
  8939.8780       0.93139010
  8940.3520       0.93132910
  8940.8240       0.93124090
  8941.3840       0.93112220
  8941.8140       0.93102130
  8942.2870       0.93090210
  8942.7610       0.93072980
  8943.3190       0.93061220
  8943.7930       0.93049900
  8944.2240       0.93063260
  8944.6970       0.93054690
  8945.2570       0.93039820
  8945.7300       0.93038800
  8946.2040       0.93033460
  8946.6350       0.93035580
  8947.1080       0.93029560
  8947.6680       0.93024980
  8948.1430       0.93024640
  8948.6160       0.93018870
  8949.0480       0.93025890
  8949.5640       0.93023500
  8950.0380       0.93011570
  8950.5130       0.93028520
  8950.9870       0.93019820
  8951.4610       0.93034810
  8951.9790       0.93033300
  8952.4530       0.93025190
  8952.9270       0.93034520
  8953.4010       0.93042740
  8953.8760       0.93056230
  8954.3940       0.93062020
  8954.8680       0.93070820
  8955.3430       0.93091370
  8955.8170       0.93104400
  8956.3360       0.93115120
  8956.8110       0.93123060
  8957.2850       0.93147950
  8957.7610       0.93158050
  8958.2350       0.93184670
  8958.7100       0.93226390
  8959.2290       0.93255850
  8959.7030       0.93271400
  8960.1790       0.93312980
  8960.6540       0.93335920
  8961.1300       0.93383660
  8961.6470       0.93406280
  8962.1230       0.93457980
  8962.5990       0.93508460
  8963.0740       0.93576700
  8963.5500       0.93634390
  8964.0680       0.93716850
  8964.5440       0.93782530
  8965.0200       0.93861000
  8965.4960       0.93936510
  8965.9720       0.94040530
  8966.4470       0.94136680
  8966.9670       0.94266520
  8967.4420       0.94408420
  8967.9190       0.94585200
  8968.3950       0.94690610
  8968.8710       0.94848390
  8969.3470       0.95100490
  8969.9090       0.95372500
  8970.3860       0.95592260
  8970.8620       0.95914110
  8971.3390       0.96383830
  8971.7720       0.96587010
  8972.2480       0.97046460
  8972.8120       0.97779870
  8973.2880       0.98572150
  8973.7650       0.99592830
  8974.1980        1.0040120
  8974.6750        1.0257270
  8975.1510        1.0413800
  8975.6280        1.0651330
  8976.1920        1.1294670
  8976.6260        1.2088820
  8977.1030        1.3478110
  8977.5800        1.5768250
  8978.0570        1.7812450
  8978.5340        1.9227310
  8979.0550        1.9908120
  8979.5310        2.0143870
  8980.0090        2.0062670
  8980.4860        1.9853420
  8980.9640        1.9606980
  8981.4410        1.9481550
  8981.9190        1.9625770
  8982.3960        1.9887410
  8982.9180        2.0341570
  8983.3960        2.0871150
  8983.8730        2.1299850
  8984.3520        2.1660790
  8984.8290        2.2046770
  8985.3070        2.2667850
  8985.7850        2.3053450
  8986.3070        2.3775220
  8986.7840        2.4475870
  8987.2630        2.5507360
  8987.7410        2.6288020
  8988.2190        2.7393060
  8988.6970        2.8469210
  8989.1760        2.9261290
  8989.6530        3.0043840
  8990.1320        3.1031220
  8990.6980        3.2110400
  8991.1330        3.2539940
  8991.6110        3.2996880
  8992.0900        3.3074430
  8992.5680        3.2928120
  8993.0480        3.2706220
  8993.5260        3.2321570
  8994.0060        3.1938800
  8994.4840        3.1538730
  8995.0070        3.1101480
  8995.4850        3.0766090
  8995.9650        3.0576630
  8996.4440        3.0444360
  8996.9240        3.0388960
  8997.4020        3.0472990
  8997.8820        3.0675140
  8998.3610        3.1005600
  8998.8400        3.1643850
  8999.3190        3.1982860
  8999.7990        3.2534360
  9000.3660        3.3039220
  9000.8030        3.3417080
  9001.2810        3.3591580
  9001.7620        3.3560860
  9002.2410        3.3370210
  9002.7210        3.2945900
  9003.2010        3.2714270
  9003.6810        3.2300070
  9004.1610        3.2081340
  9004.6420        3.1515900
  9005.1210        3.1261710
  9005.6020        3.0947090
  9006.1250        3.0632520
  9006.6050        3.0432380
  9007.0860        3.0224310
  9007.5660        2.9949220
  9008.0470        2.9758280
  9008.5260        2.9553770
  9009.0070        2.9415750
  9009.4870        2.9332270
  9009.9690        2.9312590
  9011.0620        2.9416810
  9012.1530        2.9559670
  9013.2460        2.9807340
  9014.3840        3.0086920
  9015.5650        3.0616030
  9016.7460        3.1117650
  9017.9280        3.1512680
  9019.1540        3.2090080
  9020.3800        3.2654560
  9021.6060        3.3094510
  9022.8770        3.3440660
  9024.1910        3.3479330
  9025.4640        3.3174080
  9026.8220        3.2566850
  9028.1400        3.1975530
  9029.4990        3.1274610
  9030.9030        3.0741510
  9032.3090        3.0388780
  9033.7590        3.0145890
  9035.1640        3.0094690
  9036.6150        3.0190480
  9038.1090        3.0425270
  9039.6040        3.0643160
  9041.1450        3.0703780
  9042.6420        3.0605920
  9044.2710        3.0499290
  9045.7680        3.0564790
  9047.3970        3.0833770
  9049.0290        3.1111590
  9050.6160        3.1176800
  9052.3360        3.1120900
  9053.9690        3.1145850
  9055.6460        3.1359690
  9057.3240        3.1667580
  9059.0470        3.1947330
  9060.8140        3.2127870
  9062.6270        3.2308450
  9064.3530        3.2525700
  9066.1660        3.2859080
  9067.9810        3.3204780
  9069.8420        3.3470800
  9071.7020        3.3479730
  9073.5630        3.3224220
  9075.4700        3.2700370
  9077.3770        3.1997040
  9079.3290        3.1414430
  9081.2830        3.0963010
  9083.2370        3.0566420
  9085.2810        3.0350200
  9087.2370        3.0305870
  9089.2830        3.0085540
  9091.3300        2.9545970
  9093.3780        2.9050360
  9095.4720        2.8691760
  9097.6100        2.8610180
  9099.7050        2.8815110
  9101.8470        2.9177720
  9104.0330        2.9652040
  9106.2210        3.0179640
  9108.4090        3.0679910
  9110.6440        3.1005660
  9112.8790        3.1073790
  9115.1600        3.0909570
  9117.3980        3.0712160
  9119.7280        3.0650360
  9122.0570        3.1052950
  9124.3890        3.2036220
  9126.7210        3.3276290
  9129.0990        3.3905440
  9131.4780        3.3930800
  9133.9040        3.3635640
  9136.3310        3.3343240
  9138.8050        3.3005800
  9141.2790        3.2388970
  9143.7560        3.1564610
  9146.2330        3.0558250
  9148.8030        2.9465660
  9151.3280        2.8392570
  9153.8990        2.7470800
  9156.4740        2.6897090
  9159.0940        2.6826280
  9161.7160        2.7308710
  9164.3390        2.8165720
  9167.0090        2.9175720
  9169.6810        3.0160810
  9172.3990        3.0809770
  9175.0740        3.1157320
  9177.8420        3.1089100
  9180.5640        3.0700120
  9183.3810        3.0335500
  9186.1530        3.0155550
  9188.9730        3.0079770
  9191.7940        2.9798290
  9194.6630        2.9387810
  9197.5330        2.9299600
  9200.4060        2.9761790
  9203.3260        3.0732680
  9206.2470        3.1701510
  9209.2170        3.2031550
  9212.1430        3.2061420
  9215.1150        3.1903000
  9218.1830        3.1472040
  9221.1600        3.0714210
  9224.1850        2.9773210
  9227.2580        2.8891610
  9230.3330        2.8220560
  9233.5020        2.7813510
  9236.5810        2.7630390
  9239.7550        2.7691460
  9242.8380        2.8001580
  9246.0160        2.8228450
  9249.1960        2.8219070
  9252.4250        2.8267510
  9255.6550        2.8345980
  9258.8890        2.8375950
  9262.1710        2.8527310
  9265.4540        2.8848910
  9268.7870        2.9143350
  9272.1220        2.9340460
  9275.4590        2.9438200
  9278.8000        2.9447690
  9282.1880        2.9428820
  9285.5800        2.9523540
  9289.0210        2.9672950
  9292.4650        2.9868710
  9295.9100        3.0034320
  9299.4040        2.9818790
  9302.9490        2.9335000
  9306.4030        2.8890450
  9309.9530        2.8405680
  9313.5060        2.7960970
  9317.0610        2.7758380
  9320.6660        2.7817600
  9324.3200        2.8015080
  9327.9320        2.8168900
  9331.5920        2.8031440
  9335.2560        2.7630320
  9338.9220        2.7118230
  9342.6390        2.6879550
  9346.3580        2.7118130
  9350.1280        2.7371340
  9353.9000        2.7379340
  9357.6770        2.7489220
  9361.4550        2.7656750
  9365.2850        2.7730980
  9369.1650        2.7810470
  9373.0480        2.7898190
  9376.8400        2.7974770
  9380.7770        2.8047340
  9384.6710        2.8097860
  9388.6140        2.8121140
  9392.5630        2.8137000
  9396.5610        2.8143580
  9400.5150        2.8099790
  9404.5670        2.7933990
  9408.5760        2.7604900
  9412.6370        2.7182490
  9416.7000        2.6836560
  9420.7680        2.6710650
  9424.9350        2.6716320
  9429.0100        2.6812600
  9433.1840        2.6964380
  9437.3130        2.7049870
  9441.4950        2.7012000
  9445.7290        2.6866530
  9449.9660        2.6573980
  9454.2080        2.6285730
  9458.4530        2.6235850
  9462.7020        2.6332090
  9467.0040        2.6302770
  9471.3580        2.6167240
  9475.6680        2.6102340
  9480.0290        2.6098770
  9484.3960        2.6180660
  9488.8140        2.6328200
  9493.1890        2.6458500
  9497.6650        2.6614800
  9502.0970        2.6807590
  9506.5810        2.6969830
  9511.1180        2.7022350
  9515.5630        2.6941760
  9520.1090        2.6692600
  9524.6110        2.6253980
  9529.2650        2.5803810
  9533.7750        2.5615630
  9538.4380        2.5563940
  9543.0070        2.5550070
  9547.6790        2.5528420
  9552.3060        2.5539170
  9556.9860        2.5580740
  9561.6730        2.5589720
  9566.4620        2.5520030
  9571.1570        2.5467210
  9575.9560        2.5434600
  9580.6610        2.5353490
  9585.4700        2.5179310
  9590.2830        2.5094530
  9595.1020        2.5088780
  9599.9760        2.5073380
  9604.8540        2.5118220
  9609.7370        2.5158930
  9614.6250        2.5147580
  9619.5680        2.5140530
  9624.5180        2.5188600
  9629.4710        2.5263260
  9634.4310        2.5241620
  9639.4450        2.5153930
  9644.4660        2.5055880
  9649.5410        2.4959450
  9654.5710        2.4896190
  9659.7080        2.4805150
  9664.7500        2.4658660
  9669.8470        2.4549110
  9675.0010        2.4486000
  9680.1590        2.4446250
  9685.3240        2.4443910
  9690.5450        2.4385420
  9695.7220        2.4258910
  9700.9530        2.4213630
  9706.2430        2.4202980
  9711.4860        2.4157270
  9716.7880        2.4065820
  9722.0940        2.3995280
  9727.4070        2.3945480
  9732.7760        2.3857730
  9738.2040        2.3840010
  9743.5350        2.3855570
  9748.9230        2.3871760
  9754.3170        2.3933200
  9759.7690        2.3932860
  9765.2270        2.3902650
  9770.7420        2.3867990
  9776.2120        2.3777750
  9781.7930        2.3639870
  9787.2750        2.3541410
  9792.8160        2.3522110
  9798.4160        2.3525890
  9804.0220        2.3515650
  9809.5840        2.3495860
  9815.2540        2.3431840
  9820.8800        2.3310660
  9826.5640        2.3198850
  9832.3080        2.3098000
  9837.9530        2.3025360
  9843.6590        2.2986800
  9849.4220        2.2942000
  9855.1920        2.2876580
  9860.9710        2.2828960
  9866.7550        2.2777000
  9872.6000        2.2731200
  9878.4500        2.2710660
  9884.3100        2.2669720
  9890.1750        2.2635760
  9896.1000        2.2639980
  9901.9800        2.2641500
  9907.9200        2.2615730
  9913.8670        2.2574390
  9919.8760        2.2524470
  9925.8380        2.2459560
  9931.8590        2.2404620
  9937.8900        2.2354620
  9943.9800        2.2287600
  9950.0250        2.2199930
  9956.1320        2.2135460
  9962.3000        2.2077830
  9968.3670        2.2049020
  9974.4970        2.2021340
  9980.6870        2.1992680
  9986.8320        2.1912430
  9993.0380        2.1848930
  9999.2530        2.1819880
  10005.530        2.1758890
  10011.760        2.1684000
  10018.050        2.1614250
  10024.350        2.1556880
  10030.660        2.1511780
  10037.030        2.1455700
  10043.360        2.1393510
  10049.740        2.1350550
  10056.140        2.1317820
  10062.540        2.1317620
  10068.960        2.1320800
  10075.430        2.1279860
  10081.920        2.1227870
  10088.460        2.1165600
  10094.910        2.1120590
  10101.420        2.1072030
  10107.940        2.1014530
  10114.520        2.0947870
  10121.110        2.0891340
  10127.710        2.0827590
  10134.320        2.0781820
  10141.050        2.0734630
  10147.680        2.0680760
  10154.310        2.0634730
  10161.010        2.0610480
  10167.780        2.0558530
  10174.490        2.0495330
  10181.280        2.0429400
  10188.070        2.0365710
  10194.820        2.0312280
  10201.630        2.0260540
  10208.450        2.0212010
  10215.280        2.0172160
  10222.170        2.0140190
  10229.130        2.0113500
  10235.990        2.0079600
  10242.860        2.0035550
  10249.850        1.9974550
  10256.790        1.9919100
  10263.800        1.9882980
  10270.820        1.9834550
  10277.850        1.9787910
  10284.890        1.9748100
  10291.880        1.9696600
  10299.050        1.9644340
  10306.120        1.9602770
  10313.200        1.9552220
  10320.410        1.9496100
  10327.500        1.9435820
  10334.730        1.9374610
  10341.850        1.9319020
  10349.090        1.9267810
  10356.350        1.9222930
  10363.610        1.9181790
  10370.890        1.9132250
  10378.170        1.9081010
  10385.470        1.9025900
  10392.780        1.8973500
  10400.100        1.8923020
  10407.480        1.8882400
  10414.820        1.8849450
  10422.230        1.8808800
  10429.650        1.8752090
  10437.140        1.8691170
  10444.580        1.8648100
  10452.030        1.8597300
  10459.550        1.8547030
  10467.080        1.8509270
  10474.630        1.8460620
  10482.180        1.8414540
  10489.750        1.8369490
  10497.320        1.8320290
  10504.970        1.8272660
  10512.570        1.8220910
  10520.240        1.8166150
  10527.920        1.8112860
  10535.620        1.8060910
  10543.320        1.8010560
  10551.040        1.7959750
  10558.770        1.7904570
  10566.500        1.7849850
  10574.320        1.7798170
  10582.200        1.7748300
  10589.910        1.7700770
  10597.760        1.7655840
  10605.620        1.7613460
  10613.550        1.7561880
  10621.430        1.7511460
  10629.330        1.7458660
  10637.300        1.7413250
  10645.210        1.7369950
  10653.210        1.7321370
  10661.210        1.7272650
  10669.230        1.7220110
  10677.260        1.7169600
  10685.300        1.7119490
  10693.350        1.7072550
  10701.540        1.7026570
  10709.560        1.6980360
  10717.710        1.6929230
  10725.810        1.6884240
  10733.990        1.6834950
  10742.240        1.6784410
  10750.380        1.6733260
  10758.600        1.6682160
  10766.830        1.6629040
  10775.140        1.6573900
  10783.390        1.6526720
  10791.720        1.6475450
  10800.000        1.6429620
  10808.360        1.6387160
  10816.730        1.6343220
  10825.050        1.6294740
  10833.450        1.6242540
  10841.860        1.6198850
  10850.410        1.6148150
  10858.780        1.6100300
  10867.230        1.6052740
  10875.760        1.6001370
  10884.230        1.5956010
  10892.850        1.5903290
  10901.290        1.5856830
  10909.940        1.5807970
  10918.470        1.5761620
  10927.080        1.5712430
  10935.700        1.5664590
  10944.400        1.5617830
  10952.990        1.5567880
  10961.650        1.5519670
  10970.400        1.5468710
  10979.090        1.5417560
  10987.860        1.5369870
  10996.650        1.5318560
  11005.320        1.5273180
  11014.140        1.5223590
  11022.970        1.5174510
  11031.810        1.5128050
  11040.670        1.5079710
  11049.540        1.5033130
  11058.430        1.4988780
  11067.330        1.4935910
  11076.250        1.4892480
  11085.180        1.4843890
  11094.120        1.4795860
  11103.150        1.4759530
  11112.130        1.4703890
  11121.250        1.4654580
  11130.190        1.4608240
  11139.340        1.4561060
  11148.380        1.4514180
  11157.430        1.4466480
  11166.560        1.4419410
  11175.780        1.4371890
  11184.870        1.4326100
  11194.050        1.4277900
  11203.310        1.4228760
  11212.450        1.4187400
  11221.680        1.4135460
  11230.980        1.4088560
  11240.170        1.4042900
  11249.510        1.3996850
  11258.800        1.3950060
  11268.170        1.3902360
  11277.550        1.3856460
  11286.820        1.3813900
  11296.240        1.3765960
  11305.600        1.3716540
  11315.050        1.3672420
  11324.520        1.3625440
  11333.930        1.3583600
  11343.430        1.3534790
  11352.940        1.3493260
  11362.470        1.3443090
